xcoord (m)	temperature (K)	B_field (T)	T_cur_sharing (K)
0.000000000000000000e+00	4.500000872842868205e+00	0.000000000000000000e+00	2.492500000000000000e+02
4.169914668177176348e-02	4.500001381830655234e+00	0.000000000000000000e+00	2.492500000000000000e+02
8.339829336354352696e-02	4.500002385797373883e+00	0.000000000000000000e+00	2.492500000000000000e+02
1.250974400453152835e-01	4.500003555450866166e+00	0.000000000000000000e+00	2.492500000000000000e+02
1.667965867270870539e-01	4.500004808281956592e+00	0.000000000000000000e+00	2.492500000000000000e+02
2.084957334088588243e-01	4.500006121382360114e+00	0.000000000000000000e+00	2.492500000000000000e+02
2.501948800906305670e-01	4.500007483568991162e+00	0.000000000000000000e+00	2.492500000000000000e+02
2.918940267724023374e-01	4.500008889302877790e+00	0.000000000000000000e+00	2.492500000000000000e+02
3.335931734541741078e-01	4.500010332443278749e+00	0.000000000000000000e+00	2.492500000000000000e+02
3.752923201359458782e-01	4.500011809482121983e+00	0.000000000000000000e+00	2.492500000000000000e+02
4.169914668177176487e-01	4.500013315588715201e+00	0.000000000000000000e+00	2.492500000000000000e+02
4.586906134994894191e-01	4.500014848235463383e+00	0.000000000000000000e+00	2.492500000000000000e+02
5.003897601812611340e-01	4.500016403483554583e+00	0.000000000000000000e+00	2.492500000000000000e+02
5.420889068630329044e-01	4.500017979534724155e+00	0.000000000000000000e+00	2.492500000000000000e+02
5.837880535448046748e-01	4.500019573143574370e+00	0.000000000000000000e+00	2.492500000000000000e+02
6.254872002265764452e-01	4.500021183074436770e+00	0.000000000000000000e+00	2.492500000000000000e+02
6.671863469083482157e-01	4.500022806627837824e+00	0.000000000000000000e+00	2.492500000000000000e+02
7.088854935901199861e-01	4.500024443003054486e+00	0.000000000000000000e+00	2.492500000000000000e+02
7.505846402718917565e-01	4.500026089932135598e+00	0.000000000000000000e+00	2.492500000000000000e+02
7.922837869536635269e-01	4.500027746947187879e+00	0.000000000000000000e+00	2.492500000000000000e+02
8.339829336354352973e-01	4.500029412121089756e+00	0.000000000000000000e+00	2.492500000000000000e+02
8.756820803172070677e-01	4.500031085238862083e+00	0.000000000000000000e+00	2.492500000000000000e+02
9.173812269989788382e-01	4.500032764636575422e+00	0.000000000000000000e+00	2.492500000000000000e+02
9.590803736807506086e-01	4.500034450269444264e+00	0.000000000000000000e+00	2.492500000000000000e+02
1.000779520362522268e+00	4.500036140614917635e+00	0.000000000000000000e+00	2.492500000000000000e+02
1.042478667044294038e+00	4.500037835559568045e+00	0.000000000000000000e+00	2.492500000000000000e+02
1.084177813726065809e+00	4.500039533117011992e+00	0.000000000000000000e+00	2.492500000000000000e+02
1.125876960407837579e+00	4.500041231410754961e+00	0.000000000000000000e+00	2.492500000000000000e+02
1.167576107089609350e+00	4.500042923134435213e+00	0.000000000000000000e+00	2.492500000000000000e+02
1.209275253771381120e+00	4.500044589764457648e+00	0.000000000000000000e+00	2.492500000000000000e+02
1.250974400453152890e+00	4.500046195672127602e+00	0.000000000000000000e+00	2.492500000000000000e+02
1.289312000377627498e+00	4.500047618773971081e+00	0.000000000000000000e+00	2.492500000000000000e+02
1.321260000314689709e+00	4.500048787592474397e+00	0.000000000000000000e+00	2.492500000000000000e+02
1.347883333595574884e+00	4.500049758608355432e+00	0.000000000000000000e+00	2.492500000000000000e+02
1.370069444662979086e+00	4.500050567861974216e+00	0.000000000000000000e+00	2.492500000000000000e+02
1.388557870552482587e+00	4.500051243713598659e+00	0.000000000000000000e+00	2.492500000000000000e+02
1.403964892127068875e+00	4.500051808879913295e+00	0.000000000000000000e+00	2.492500000000000000e+02
1.416804076772557375e+00	4.500052282130948988e+00	0.000000000000000000e+00	2.492500000000000000e+02
1.427503397310464495e+00	4.500052678768871495e+00	0.000000000000000000e+00	2.492500000000000000e+02
1.436419497758720354e+00	4.500053011453993612e+00	0.000000000000000000e+00	2.492500000000000000e+02
1.443849581465600274e+00	4.500053290596646605e+00	0.000000000000000000e+00	2.492500000000000000e+02
1.450041317888000281e+00	4.500053524850010866e+00	0.000000000000000000e+00	2.492500000000000000e+02
1.455201098240000324e+00	4.500053721403798335e+00	0.000000000000000000e+00	2.492500000000000000e+02
1.459500915200000248e+00	4.500053886276262460e+00	0.000000000000000000e+00	2.492500000000000000e+02
1.463084096000000223e+00	4.500054024510926176e+00	0.000000000000000000e+00	2.492500000000000000e+02
1.466070080000000164e+00	4.500054140351275045e+00	0.000000000000000000e+00	2.492500000000000000e+02
1.468558400000000264e+00	4.500054237369762511e+00	0.000000000000000000e+00	2.492500000000000000e+02
1.470632000000000161e+00	4.500054318578079027e+00	0.000000000000000000e+00	2.492500000000000000e+02
1.472360000000000113e+00	4.500054386514511506e+00	0.000000000000000000e+00	2.492500000000000000e+02
1.473799999999999999e+00	4.500054443318179942e+00	0.000000000000000000e+00	2.492500000000000000e+02
1.475000000000000089e+00	4.500054490790375006e+00	0.000000000000000000e+00	2.492500000000000000e+02
1.475999999999999979e+00	4.500054530446505829e+00	0.000000000000000000e+00	2.492500000000000000e+02
1.477000000000000091e+00	4.500054570189683467e+00	0.000000000000000000e+00	2.492500000000000000e+02
1.477999999999999980e+00	4.500054610019194712e+00	0.000000000000000000e+00	2.492500000000000000e+02
1.479000000000000092e+00	4.500054649934157602e+00	0.000000000000000000e+00	2.492500000000000000e+02
1.479999999999999982e+00	4.500054689933652874e+00	0.000000000000000000e+00	2.492500000000000000e+02
1.481000000000000094e+00	4.500054730016692872e+00	0.000000000000000000e+00	2.492500000000000000e+02
1.481999999999999984e+00	4.500054770182321917e+00	0.000000000000000000e+00	2.492500000000000000e+02
1.483000000000000096e+00	4.500054810429578112e+00	0.000000000000000000e+00	2.492500000000000000e+02
1.483999999999999986e+00	4.500054850757558178e+00	0.000000000000000000e+00	2.492500000000000000e+02
1.485000000000000098e+00	4.500054891165381044e+00	0.000000000000000000e+00	2.492500000000000000e+02
1.485999999999999988e+00	4.500054931652242907e+00	0.000000000000000000e+00	2.492500000000000000e+02
1.487000000000000099e+00	4.500054972217373717e+00	0.000000000000000000e+00	2.492500000000000000e+02
1.487999999999999989e+00	4.500055012860094017e+00	0.000000000000000000e+00	2.492500000000000000e+02
1.489000000000000101e+00	4.500055053579769648e+00	0.000000000000000000e+00	2.492500000000000000e+02
1.489999999999999991e+00	4.500055094375845499e+00	0.000000000000000000e+00	2.492500000000000000e+02
1.491000000000000103e+00	4.500055135247817972e+00	0.000000000000000000e+00	2.492500000000000000e+02
1.491999999999999993e+00	4.500055176195272288e+00	0.000000000000000000e+00	2.492500000000000000e+02
1.493000000000000105e+00	4.500055217217837189e+00	0.000000000000000000e+00	2.492500000000000000e+02
1.493999999999999995e+00	4.500055258315229345e+00	0.000000000000000000e+00	2.492500000000000000e+02
1.495000000000000107e+00	4.500055299487212501e+00	0.000000000000000000e+00	2.492500000000000000e+02
1.495999999999999996e+00	4.500055340733634779e+00	0.000000000000000000e+00	2.492500000000000000e+02
1.497000000000000108e+00	4.500055382054397590e+00	0.000000000000000000e+00	2.492500000000000000e+02
1.497999999999999998e+00	4.500055423449477843e+00	0.000000000000000000e+00	2.492500000000000000e+02
1.499000000000000110e+00	4.500055464918903958e+00	0.000000000000000000e+00	2.492500000000000000e+02
1.500000000000000000e+00	4.500055506462787847e+00	0.000000000000000000e+00	2.492500000000000000e+02
1.500999999999999890e+00	4.500055548081285828e+00	0.000000000000000000e+00	2.492500000000000000e+02
1.502000000000000002e+00	4.500055589774644815e+00	0.000000000000000000e+00	2.492500000000000000e+02
1.502999999999999892e+00	4.500055631543147250e+00	0.000000000000000000e+00	2.492500000000000000e+02
1.504000000000000004e+00	4.500055673387167054e+00	0.000000000000000000e+00	2.492500000000000000e+02
1.504999999999999893e+00	4.500055715307113680e+00	0.000000000000000000e+00	2.492500000000000000e+02
1.506000000000000005e+00	4.500055757303468518e+00	0.000000000000000000e+00	2.492500000000000000e+02
1.506999999999999895e+00	4.500055799376779575e+00	0.000000000000000000e+00	2.492500000000000000e+02
1.508000000000000007e+00	4.500055841527670353e+00	0.000000000000000000e+00	2.492500000000000000e+02
1.508999999999999897e+00	4.500055883756797215e+00	0.000000000000000000e+00	2.492500000000000000e+02
1.510000000000000009e+00	4.500055926064901790e+00	0.000000000000000000e+00	2.492500000000000000e+02
1.510999999999999899e+00	4.500055968452776334e+00	0.000000000000000000e+00	2.492500000000000000e+02
1.512000000000000011e+00	4.500056010921269944e+00	0.000000000000000000e+00	2.492500000000000000e+02
1.512999999999999901e+00	4.500056053471284123e+00	0.000000000000000000e+00	2.492500000000000000e+02
1.514000000000000012e+00	4.500056096103794090e+00	0.000000000000000000e+00	2.492500000000000000e+02
1.514999999999999902e+00	4.500056138819802598e+00	0.000000000000000000e+00	2.492500000000000000e+02
1.516000000000000014e+00	4.500056181620378126e+00	0.000000000000000000e+00	2.492500000000000000e+02
1.516999999999999904e+00	4.500056224506608693e+00	0.000000000000000000e+00	2.492500000000000000e+02
1.518000000000000016e+00	4.500056267479626726e+00	0.000000000000000000e+00	2.492500000000000000e+02
1.518999999999999906e+00	4.500056310540563764e+00	0.000000000000000000e+00	2.492500000000000000e+02
1.520000000000000018e+00	4.500056353690574440e+00	0.000000000000000000e+00	2.492500000000000000e+02
1.520999999999999908e+00	4.500056396930753877e+00	0.000000000000000000e+00	2.492500000000000000e+02
1.522000000000000020e+00	4.500056440262161672e+00	0.000000000000000000e+00	2.492500000000000000e+02
1.522999999999999909e+00	4.500056483685714426e+00	0.000000000000000000e+00	2.492500000000000000e+02
1.524000000000000021e+00	4.500056527202158208e+00	0.000000000000000000e+00	2.492500000000000000e+02
1.524999999999999911e+00	4.500056570811612922e+00	0.000000000000000000e+00	2.492500000000000000e+02
1.526200000000000001e+00	4.500056623263591682e+00	0.000000000000000000e+00	2.492500000000000000e+02
1.527639999999999887e+00	4.500056686374774628e+00	0.000000000000000000e+00	2.492500000000000000e+02
1.529367999999999839e+00	4.500056762342132366e+00	0.000000000000000000e+00	2.492500000000000000e+02
1.531441599999999736e+00	4.500056853823417136e+00	0.000000000000000000e+00	2.492500000000000000e+02
1.533929919999999836e+00	4.500056964034349072e+00	0.000000000000000000e+00	2.492500000000000000e+02
1.536915903999999777e+00	4.500057096864732209e+00	0.000000000000000000e+00	2.492500000000000000e+02
1.540499084799999752e+00	4.500057257017652468e+00	0.000000000000000000e+00	2.492500000000000000e+02
1.544798901759999676e+00	4.500057450172943341e+00	0.000000000000000000e+00	2.492500000000000000e+02
1.549958682111999719e+00	4.500057683181720947e+00	0.000000000000000000e+00	2.492500000000000000e+02
1.556150418534399726e+00	4.500057964289426060e+00	0.000000000000000000e+00	2.492500000000000000e+02
1.563580502241279646e+00	4.500058303402083126e+00	0.000000000000000000e+00	2.492500000000000000e+02
1.572496602689535505e+00	4.500058712383359527e+00	0.000000000000000000e+00	2.492500000000000000e+02
1.583195923227442625e+00	4.500059205418748931e+00	0.000000000000000000e+00	2.492500000000000000e+02
1.596035107872931125e+00	4.500059799401177507e+00	0.000000000000000000e+00	2.492500000000000000e+02
1.611442129447517413e+00	4.500060514402768774e+00	0.000000000000000000e+00	2.492500000000000000e+02
1.629930555337020914e+00	4.500061374023358596e+00	0.000000000000000000e+00	2.492500000000000000e+02
1.652116666404425116e+00	4.500062405492561979e+00	0.000000000000000000e+00	2.492500000000000000e+02
1.678739999685310291e+00	4.500063638075304517e+00	0.000000000000000000e+00	2.492500000000000000e+02
1.710687999622372502e+00	4.500065095269971671e+00	0.000000000000000000e+00	2.492500000000000000e+02
1.749025599546847110e+00	4.500066782621092720e+00	0.000000000000000000e+00	2.492500000000000000e+02
1.790724746228618880e+00	4.500068552443345915e+00	0.000000000000000000e+00	2.492500000000000000e+02
1.832423892910390650e+00	4.500070296543937864e+00	0.000000000000000000e+00	2.492500000000000000e+02
1.874123039592162421e+00	4.500072034274459121e+00	0.000000000000000000e+00	2.492500000000000000e+02
1.915822186273934191e+00	4.500073769978367721e+00	0.000000000000000000e+00	2.492500000000000000e+02
1.957521332955705962e+00	4.500075504837357521e+00	0.000000000000000000e+00	2.492500000000000000e+02
1.999220479637477732e+00	4.500077239043175581e+00	0.000000000000000000e+00	2.492500000000000000e+02
2.040919626319249502e+00	4.500078972810292122e+00	0.000000000000000000e+00	2.492500000000000000e+02
2.082618773001021051e+00	4.500080706107593365e+00	0.000000000000000000e+00	2.492500000000000000e+02
2.124317919682793043e+00	4.500082439080030028e+00	0.000000000000000000e+00	2.492500000000000000e+02
2.166017066364564592e+00	4.500084171679966438e+00	0.000000000000000000e+00	2.492500000000000000e+02
2.207716213046336584e+00	4.500085904032473216e+00	0.000000000000000000e+00	2.492500000000000000e+02
2.249415359728108132e+00	4.500087636087057419e+00	0.000000000000000000e+00	2.492500000000000000e+02
2.291114506409880125e+00	4.500089367953610697e+00	0.000000000000000000e+00	2.492500000000000000e+02
2.332813653091651673e+00	4.500091099580806109e+00	0.000000000000000000e+00	2.492500000000000000e+02
2.374512799773423666e+00	4.500092831065265031e+00	0.000000000000000000e+00	2.492500000000000000e+02
2.416211946455195214e+00	4.500094562356879102e+00	0.000000000000000000e+00	2.492500000000000000e+02
2.457911093136967207e+00	4.500096293539838754e+00	0.000000000000000000e+00	2.492500000000000000e+02
2.499610239818738755e+00	4.500098024564763932e+00	0.000000000000000000e+00	2.492500000000000000e+02
2.541309386500510747e+00	4.500099755501651089e+00	0.000000000000000000e+00	2.492500000000000000e+02
2.583008533182282296e+00	4.500101486292782837e+00	0.000000000000000000e+00	2.492500000000000000e+02
2.624707679864054288e+00	4.500103216964905783e+00	0.000000000000000000e+00	2.492500000000000000e+02
2.666406826545825837e+00	4.500104947365191954e+00	0.000000000000000000e+00	2.492500000000000000e+02
2.708105973227597829e+00	4.500106677222016849e+00	0.000000000000000000e+00	2.492500000000000000e+02
2.749805119909369377e+00	4.500108405536193068e+00	0.000000000000000000e+00	2.492500000000000000e+02
2.791504266591140926e+00	4.500110129530540348e+00	0.000000000000000000e+00	2.492500000000000000e+02
2.833203413272912918e+00	4.500111840880619773e+00	0.000000000000000000e+00	2.492500000000000000e+02
2.874902559954684911e+00	4.500113515262162522e+00	0.000000000000000000e+00	2.492500000000000000e+02
2.916601706636456459e+00	4.500115081551867569e+00	0.000000000000000000e+00	2.492500000000000000e+02
2.958300853318228008e+00	4.500116323597947776e+00	0.000000000000000000e+00	2.492500000000000000e+02
3.000000000000000000e+00	4.500116806797091584e+00	0.000000000000000000e+00	2.492500000000000000e+02
