xcoord (m)	temperature (K)	B_field (T)
0.000000000000000000e+00	4.500000860169835804e+00	0.000000000000000000e+00
4.169914668177176348e-02	4.500001381015855451e+00	0.000000000000000000e+00
8.339829336354352696e-02	4.500002389975635175e+00	0.000000000000000000e+00
1.250974400453152835e-01	4.500003562656993417e+00	0.000000000000000000e+00
1.667965867270870539e-01	4.500004817792765621e+00	0.000000000000000000e+00
2.084957334088588243e-01	4.500006132946355208e+00	0.000000000000000000e+00
2.501948800906305670e-01	4.500007496839199206e+00	0.000000000000000000e+00
2.918940267724023374e-01	4.500008904169012780e+00	0.000000000000000000e+00
3.335931734541741078e-01	4.500010348627562884e+00	0.000000000000000000e+00
3.752923201359458782e-01	4.500011826920650826e+00	0.000000000000000000e+00
4.169914668177176487e-01	4.500013334046907509e+00	0.000000000000000000e+00
4.586906134994894191e-01	4.500014867681678687e+00	0.000000000000000000e+00
5.003897601812611340e-01	4.500016423716930447e+00	0.000000000000000000e+00
5.420889068630329044e-01	4.500018000548053898e+00	0.000000000000000000e+00
5.837880535448046748e-01	4.500019594762828312e+00	0.000000000000000000e+00
6.254872002265764452e-01	4.500021205310988037e+00	0.000000000000000000e+00
6.671863469083482157e-01	4.500022829329049401e+00	0.000000000000000000e+00
7.088854935901199861e-01	4.500024466194356698e+00	0.000000000000000000e+00
7.505846402718917565e-01	4.500026113478099887e+00	0.000000000000000000e+00
7.922837869536635269e-01	4.500027770883654021e+00	0.000000000000000000e+00
8.339829336354352973e-01	4.500029436326633991e+00	0.000000000000000000e+00
8.756820803172070677e-01	4.500031109756977621e+00	0.000000000000000000e+00
9.173812269989788382e-01	4.500032789357441665e+00	0.000000000000000000e+00
9.590803736807506086e-01	4.500034475242455478e+00	0.000000000000000000e+00
1.000779520362522268e+00	4.500036165740800342e+00	0.000000000000000000e+00
1.042478667044294038e+00	4.500037860895303332e+00	0.000000000000000000e+00
1.084177813726065809e+00	4.500039558582377808e+00	0.000000000000000000e+00
1.125876960407837579e+00	4.500041257096714986e+00	0.000000000000000000e+00
1.167576107089609350e+00	4.500042949063750797e+00	0.000000000000000000e+00
1.209275253771381120e+00	4.500044616331924097e+00	0.000000000000000000e+00
1.250974400453152890e+00	4.500046222251952166e+00	0.000000000000000000e+00
1.289312000377627498e+00	4.500047644846167927e+00	0.000000000000000000e+00
1.321260000314689709e+00	4.500048813432009354e+00	0.000000000000000000e+00
1.347883333595574884e+00	4.500049784364793304e+00	0.000000000000000000e+00
1.370069444662979086e+00	4.500050593488653661e+00	0.000000000000000000e+00
1.388557870552482587e+00	4.500051269265960663e+00	0.000000000000000000e+00
1.403964892127068875e+00	4.500051834294308328e+00	0.000000000000000000e+00
1.416804076772557375e+00	4.500052307444806665e+00	0.000000000000000000e+00
1.427503397310464495e+00	4.500052703929704023e+00	0.000000000000000000e+00
1.436419497758720354e+00	4.500053036493163461e+00	0.000000000000000000e+00
1.443849581465600274e+00	4.500053315480731619e+00	0.000000000000000000e+00
1.450041317888000281e+00	4.500053549607313741e+00	0.000000000000000000e+00
1.455201098240000324e+00	4.500053746018759071e+00	0.000000000000000000e+00
1.459500915200000248e+00	4.500053910774323818e+00	0.000000000000000000e+00
1.463084096000000223e+00	4.500054048889908564e+00	0.000000000000000000e+00
1.466070080000000164e+00	4.500054164634258669e+00	0.000000000000000000e+00
1.468558400000000264e+00	4.500054261564287117e+00	0.000000000000000000e+00
1.470632000000000161e+00	4.500054342705936961e+00	0.000000000000000000e+00
1.472360000000000113e+00	4.500054410589106269e+00	0.000000000000000000e+00
1.473799999999999999e+00	4.500054467359490218e+00	0.000000000000000000e+00
1.475000000000000089e+00	4.500054514813115247e+00	0.000000000000000000e+00
1.475999999999999979e+00	4.500054554465536150e+00	0.000000000000000000e+00
1.477000000000000091e+00	4.500054594211459147e+00	0.000000000000000000e+00
1.477999999999999980e+00	4.500054634049639901e+00	0.000000000000000000e+00
1.479000000000000092e+00	4.500054673975408370e+00	0.000000000000000000e+00
1.479999999999999982e+00	4.500054713988594912e+00	0.000000000000000000e+00
1.481000000000000094e+00	4.500054754085383912e+00	0.000000000000000000e+00
1.481999999999999984e+00	4.500054794266116431e+00	0.000000000000000000e+00
1.483000000000000096e+00	4.500054834527490222e+00	0.000000000000000000e+00
1.483999999999999986e+00	4.500054874870143884e+00	0.000000000000000000e+00
1.485000000000000098e+00	4.500054915291143764e+00	0.000000000000000000e+00
1.485999999999999988e+00	4.500054955791320310e+00	0.000000000000000000e+00
1.487000000000000099e+00	4.500054996368024085e+00	0.000000000000000000e+00
1.487999999999999989e+00	4.500055037022237414e+00	0.000000000000000000e+00
1.489000000000000101e+00	4.500055077751549781e+00	0.000000000000000000e+00
1.489999999999999991e+00	4.500055118557062528e+00	0.000000000000000000e+00
1.491000000000000103e+00	4.500055159436588958e+00	0.000000000000000000e+00
1.491999999999999993e+00	4.500055200391322785e+00	0.000000000000000000e+00
1.493000000000000105e+00	4.500055241419284258e+00	0.000000000000000000e+00
1.493999999999999995e+00	4.500055282521764788e+00	0.000000000000000000e+00
1.495000000000000107e+00	4.500055323696975584e+00	0.000000000000000000e+00
1.495999999999999996e+00	4.500055364946285330e+00	0.000000000000000000e+00
1.497000000000000108e+00	4.500055406268102409e+00	0.000000000000000000e+00
1.497999999999999998e+00	4.500055447663884323e+00	0.000000000000000000e+00
1.499000000000000110e+00	4.500055489132212649e+00	0.000000000000000000e+00
1.500000000000000000e+00	4.500055530674621274e+00	0.000000000000000000e+00
1.500999999999999890e+00	4.500055572289883621e+00	0.000000000000000000e+00
1.502000000000000002e+00	4.500055613979608182e+00	0.000000000000000000e+00
1.502999999999999892e+00	4.500055655742750460e+00	0.000000000000000000e+00
1.504000000000000004e+00	4.500055697580985559e+00	0.000000000000000000e+00
1.504999999999999893e+00	4.500055739493450169e+00	0.000000000000000000e+00
1.506000000000000005e+00	4.500055781481911765e+00	0.000000000000000000e+00
1.506999999999999895e+00	4.500055823545680234e+00	0.000000000000000000e+00
1.508000000000000007e+00	4.500055865686597656e+00	0.000000000000000000e+00
1.508999999999999897e+00	4.500055907904155994e+00	0.000000000000000000e+00
1.510000000000000009e+00	4.500055950200295918e+00	0.000000000000000000e+00
1.510999999999999899e+00	4.500055992574681696e+00	0.000000000000000000e+00
1.512000000000000011e+00	4.500056035029368573e+00	0.000000000000000000e+00
1.512999999999999901e+00	4.500056077564209112e+00	0.000000000000000000e+00
1.514000000000000012e+00	4.500056120181374020e+00	0.000000000000000000e+00
1.514999999999999902e+00	4.500056162880940569e+00	0.000000000000000000e+00
1.516000000000000014e+00	4.500056205665222464e+00	0.000000000000000000e+00
1.516999999999999904e+00	4.500056248534556325e+00	0.000000000000000000e+00
1.518000000000000016e+00	4.500056291491473459e+00	0.000000000000000000e+00
1.518999999999999906e+00	4.500056334536647995e+00	0.000000000000000000e+00
1.520000000000000018e+00	4.500056377672930097e+00	0.000000000000000000e+00
1.520999999999999908e+00	4.500056420901502818e+00	0.000000000000000000e+00
1.522000000000000020e+00	4.500056464225794528e+00	0.000000000000000000e+00
1.522999999999999909e+00	4.500056507647900439e+00	0.000000000000000000e+00
1.524000000000000021e+00	4.500056551172496810e+00	0.000000000000000000e+00
1.524999999999999911e+00	4.500056594801495891e+00	0.000000000000000000e+00
1.526200000000000001e+00	4.500056647289236267e+00	0.000000000000000000e+00
1.527639999999999887e+00	4.500056710452854603e+00	0.000000000000000000e+00
1.529367999999999839e+00	4.500056786492055316e+00	0.000000000000000000e+00
1.531441599999999736e+00	4.500056878062348886e+00	0.000000000000000000e+00
1.533929919999999836e+00	4.500056988381942347e+00	0.000000000000000000e+00
1.536915903999999777e+00	4.500057121334942067e+00	0.000000000000000000e+00
1.540499084799999752e+00	4.500057281628135897e+00	0.000000000000000000e+00
1.544798901759999676e+00	4.500057474931987045e+00	0.000000000000000000e+00
1.549958682111999719e+00	4.500057708104230336e+00	0.000000000000000000e+00
1.556150418534399726e+00	4.500057989376789358e+00	0.000000000000000000e+00
1.563580502241279646e+00	4.500058328666161955e+00	0.000000000000000000e+00
1.572496602689535505e+00	4.500058737818453558e+00	0.000000000000000000e+00
1.583195923227442625e+00	4.500059231035557161e+00	0.000000000000000000e+00
1.596035107872931125e+00	4.500059825191983442e+00	0.000000000000000000e+00
1.611442129447517413e+00	4.500060540386479957e+00	0.000000000000000000e+00
1.629930555337020914e+00	4.500061400209546036e+00	0.000000000000000000e+00
1.652116666404425116e+00	4.500062431942510877e+00	0.000000000000000000e+00
1.678739999685310291e+00	4.500063664907599126e+00	0.000000000000000000e+00
1.710687999622372502e+00	4.500065122848599053e+00	0.000000000000000000e+00
1.749025599546847110e+00	4.500066810178334542e+00	0.000000000000000000e+00
1.790724746228618880e+00	4.500068579446720562e+00	0.000000000000000000e+00
1.832423892910390650e+00	4.500070323384224302e+00	0.000000000000000000e+00
1.874123039592162421e+00	4.500072061065461426e+00	0.000000000000000000e+00
1.915822186273934191e+00	4.500073796732739773e+00	0.000000000000000000e+00
1.957521332955705962e+00	4.500075531573916265e+00	0.000000000000000000e+00
1.999220479637477732e+00	4.500077265755073164e+00	0.000000000000000000e+00
2.040919626319249502e+00	4.500078999510055411e+00	0.000000000000000000e+00
2.082618773001021051e+00	4.500080732787640869e+00	0.000000000000000000e+00
2.124317919682793043e+00	4.500082465751336969e+00	0.000000000000000000e+00
2.166017066364564592e+00	4.500084198335185803e+00	0.000000000000000000e+00
2.207716213046336584e+00	4.500085930681515300e+00	0.000000000000000000e+00
2.249415359728108132e+00	4.500087662722896731e+00	0.000000000000000000e+00
2.291114506409880125e+00	4.500089394585239155e+00	0.000000000000000000e+00
2.332813653091651673e+00	4.500091126201541059e+00	0.000000000000000000e+00
2.374512799773423666e+00	4.500092857683208436e+00	0.000000000000000000e+00
2.416211946455195214e+00	4.500094588965847464e+00	0.000000000000000000e+00
2.457911093136967207e+00	4.500096320147066287e+00	0.000000000000000000e+00
2.499610239818738755e+00	4.500098051164601820e+00	0.000000000000000000e+00
2.541309386500510747e+00	4.500099782100591916e+00	0.000000000000000000e+00
2.583008533182282296e+00	4.500101512885922972e+00	0.000000000000000000e+00
2.624707679864054288e+00	4.500103243558519317e+00	0.000000000000000000e+00
2.666406826545825837e+00	4.500104973956653431e+00	0.000000000000000000e+00
2.708105973227597829e+00	4.500106703821884935e+00	0.000000000000000000e+00
2.749805119909369377e+00	4.500108432157198024e+00	0.000000000000000000e+00
2.791504266591140926e+00	4.500110156225101576e+00	0.000000000000000000e+00
2.833203413272912918e+00	4.500111867790979048e+00	0.000000000000000000e+00
2.874902559954684911e+00	4.500113542803997113e+00	0.000000000000000000e+00
2.916601706636456459e+00	4.500115110972176424e+00	0.000000000000000000e+00
2.958300853318228008e+00	4.500116358779005843e+00	0.000000000000000000e+00
3.000000000000000000e+00	4.500116844708680119e+00	0.000000000000000000e+00
